113119.000000
113187.000000
113187.000000
113198.000000
113175.000000
113213.000000
113237.000000
113190.000000
113193.000000
113237.000000
113259.000000
113151.000000
113232.000000
113117.000000
113152.000000
113007.000000
112907.000000
112714.000000
112651.000000
112485.000000
112431.000000
112345.000000
112241.000000
112120.000000
112052.000000
112124.000000
112003.000000
112064.000000
112046.000000
112057.000000
112037.000000
112003.000000
111994.000000
112048.000000
112044.000000
112091.000000
112054.000000
112103.000000
112095.000000
112045.000000
112100.000000
112137.000000
112151.000000
112141.000000
112082.000000
112111.000000
112142.000000
112066.000000
112159.000000
112169.000000
112168.000000
112148.000000
112174.000000
112230.000000
112242.000000
112224.000000
112237.000000
112358.000000
112286.000000
112331.000000
112277.000000
112379.000000
112388.000000
112312.000000
112367.000000
112394.000000
112445.000000
112382.000000
112405.000000
112414.000000
112493.000000
112430.000000
112455.000000
112457.000000
112471.000000
112429.000000
112473.000000
112483.000000
112511.000000
112491.000000
112480.000000
112484.000000
112536.000000
112456.000000
112519.000000
112538.000000
112563.000000
112556.000000
112612.000000
112664.000000
112603.000000
112615.000000
112672.000000
112641.000000
112657.000000
112617.000000
112709.000000
112744.000000
112686.000000
112657.000000
112698.000000
112791.000000
112774.000000
112690.000000
112741.000000
112796.000000
112837.000000
112765.000000
112850.000000
112875.000000
112844.000000
112839.000000
112895.000000
112920.000000
112910.000000
112824.000000
112883.000000
112906.000000
112892.000000
112913.000000
112958.000000
112902.000000
113010.000000
112921.000000
113029.000000
113008.000000
112969.000000
112942.000000
113017.000000
113071.000000
112990.000000
112942.000000
113047.000000
113034.000000
113055.000000
112989.000000
113113.000000
113081.000000
113087.000000
113078.000000
113097.000000
113070.000000
113088.000000
113074.000000
113142.000000
113188.000000
113189.000000
113067.000000
113217.000000
113229.000000
113225.000000
113197.000000
113254.000000
113224.000000
113252.000000
113275.000000
113297.000000
113276.000000
113230.000000
113244.000000
113249.000000
113247.000000
113215.000000
113127.000000
113062.000000
112952.000000
112870.000000
112628.000000
112607.000000
112478.000000
112337.000000
112317.000000
112303.000000
112238.000000
112143.000000
112070.000000
112081.000000
112148.000000
112065.000000
112117.000000
112168.000000
112206.000000
112180.000000
112157.000000
112209.000000
112198.000000
112206.000000
112212.000000
112228.000000
112209.000000
112180.000000
112173.000000
112222.000000
112220.000000
112214.000000
112216.000000
112316.000000
112314.000000
112246.000000
112282.000000
112320.000000
112320.000000
112309.000000
112352.000000
112432.000000
112428.000000
112442.000000
112394.000000
112446.000000
112420.000000
112521.000000
112428.000000
112508.000000
112502.000000
112472.000000
112472.000000
112584.000000
112578.000000
112501.000000
112545.000000
112603.000000
112592.000000
112504.000000
112592.000000
112638.000000
112634.000000
112580.000000
112568.000000
112648.000000
112612.000000
112573.000000
112575.000000
112685.000000
112676.000000
112665.000000
112587.000000
112711.000000
112641.000000
112701.000000
112744.000000
112786.000000
112741.000000
112704.000000
112706.000000
112783.000000
112857.000000
112839.000000
112816.000000
112893.000000
112823.000000
112793.000000
112810.000000
112912.000000
112939.000000
112849.000000
112886.000000
112934.000000
112924.000000
112912.000000
112938.000000
112964.000000
113002.000000
112950.000000
113002.000000
113047.000000
113001.000000
113039.000000
113047.000000
113067.000000
113038.000000
112992.000000
113083.000000
113044.000000
113047.000000
113020.000000
113073.000000
113110.000000
113110.000000
113096.000000
113120.000000
113153.000000
113090.000000
113109.000000
113205.000000
113177.000000
113139.000000
113142.000000
113161.000000
113187.000000
113191.000000
113194.000000
113228.000000
113293.000000
113272.000000
113209.000000
113203.000000
113258.000000
113316.000000
113203.000000
113276.000000
113321.000000
113295.000000
113190.000000
113244.000000
113141.000000
113072.000000
112978.000000
112948.000000
112743.000000
112698.000000
112524.000000
112501.000000
112457.000000
112346.000000
112255.000000
112210.000000
112181.000000
112160.000000
112077.000000
112160.000000
112173.000000
112203.000000
112150.000000
112202.000000
112229.000000
112222.000000
112131.000000
112235.000000
112246.000000
112250.000000
112271.000000
112297.000000
112303.000000
112259.000000
112275.000000
112310.000000
112340.000000
112307.000000
112325.000000
112426.000000
112411.000000
112431.000000
112418.000000
112489.000000
112456.000000
112488.000000
112477.000000
112635.000000
112567.000000
112557.000000
112535.000000
112645.000000
112632.000000
112612.000000
112582.000000
112662.000000
112610.000000
112576.000000
112542.000000
112651.000000
112568.000000
112609.000000
112599.000000
112627.000000
112587.000000
112604.000000
112560.000000
112684.000000
112652.000000
112589.000000
112533.000000
112673.000000
112700.000000
112673.000000
112611.000000
112686.000000
112685.000000
112645.000000
112645.000000
112711.000000
112748.000000
112695.000000
112711.000000
112842.000000
112797.000000
112801.000000
112841.000000
112842.000000
112805.000000
112821.000000
112816.000000
112857.000000
112919.000000
112912.000000
112920.000000
112972.000000
113003.000000
112971.000000
112970.000000
113016.000000
112997.000000
112948.000000
112949.000000
113025.000000
113082.000000
113041.000000
112993.000000
113050.000000
113026.000000
113018.000000
113047.000000
113075.000000
113060.000000
113123.000000
113101.000000
113150.000000
113164.000000
113136.000000
113119.000000
113177.000000
113143.000000
113110.000000
113107.000000
113170.000000
113167.000000
113221.000000
113232.000000
113239.000000
113262.000000
113219.000000
113219.000000
113190.000000
113139.000000
113024.000000
112878.000000
112845.000000
112681.000000
112541.000000
112490.000000
112499.000000
112398.000000
112296.000000
112273.000000
112264.000000
112244.000000
112187.000000
112178.000000
112171.000000
112211.000000
112213.000000
112233.000000
112293.000000
112247.000000
112280.000000
112395.000000
112389.000000
112400.000000
112328.000000
112339.000000
112354.000000
112435.000000
112403.000000
112360.000000
112425.000000
112478.000000
112388.000000
112512.000000
112520.000000
112462.000000
112532.000000
112550.000000
112574.000000
112597.000000
112537.000000
112602.000000
112677.000000
112614.000000
112576.000000
112655.000000
112696.000000
112721.000000
112653.000000
112766.000000
112731.000000
112751.000000
112646.000000
112746.000000
112665.000000
112719.000000
112740.000000
112761.000000
112729.000000
112740.000000
112727.000000
112738.000000
112746.000000
112713.000000
112703.000000
112806.000000
112810.000000
112711.000000
112682.000000
112793.000000
112816.000000
112753.000000
112780.000000
112876.000000
112846.000000
112911.000000
112846.000000
112894.000000
112891.000000
112918.000000
112854.000000
112889.000000
112984.000000
112931.000000
112946.000000
112990.000000
113003.000000
112956.000000
112964.000000
113071.000000
113033.000000
112993.000000
113008.000000
113098.000000
113089.000000
113073.000000
113045.000000
113070.000000
113071.000000
113060.000000
113036.000000
113141.000000
113079.000000
113122.000000
113049.000000
113133.000000
113191.000000
113169.000000
113147.000000
113136.000000
113202.000000
113180.000000
113182.000000
113285.000000
113185.000000
113155.000000
113228.000000
113221.000000
113253.000000
113254.000000
113143.000000
113210.000000
113119.000000
112968.000000
112869.000000
112827.000000
112690.000000
112517.000000
112412.000000
112354.000000
112317.000000
112220.000000
112137.000000
112150.000000
112068.000000
112070.000000
112001.000000
112049.000000
112052.000000
112036.000000
112071.000000
112102.000000
112153.000000
112191.000000
112168.000000
112201.000000
112230.000000
112254.000000
112240.000000
112271.000000
112256.000000
112250.000000
112200.000000
112271.000000
112324.000000
112332.000000
112248.000000
112364.000000
112432.000000
112376.000000
112379.000000
112466.000000
112411.000000
112403.000000
112449.000000
112550.000000
112586.000000
112564.000000
112555.000000
112634.000000
112589.000000
112511.000000
112503.000000
112642.000000
112592.000000
112566.000000
112620.000000
112634.000000
112624.000000
112640.000000
112575.000000
112574.000000
112602.000000
112599.000000
112664.000000
112671.000000
112616.000000
112641.000000
112658.000000
112645.000000
112663.000000
112666.000000
112665.000000
112691.000000
112741.000000
112742.000000
112752.000000
112834.000000
112833.000000
112758.000000
112858.000000
112857.000000
112892.000000
112844.000000
112883.000000
112851.000000
112894.000000
112853.000000
112867.000000
112894.000000
112962.000000
112955.000000
113011.000000
112977.000000
112947.000000
112989.000000
113056.000000
113048.000000
113022.000000
112986.000000
113081.000000
113100.000000
113090.000000
113028.000000
113043.000000
113060.000000
113080.000000
113099.000000
113087.000000
113123.000000
113078.000000
113082.000000
113113.000000
113172.000000
113147.000000
113097.000000
113209.000000
113167.000000
113138.000000
113100.000000
113177.000000
113157.000000
113098.000000
112954.000000
112854.000000
112826.000000
112634.000000
112459.000000
112417.000000
112345.000000
112251.000000
112099.000000
112129.000000
112036.000000
112028.000000
111947.000000
112029.000000
112003.000000
111997.000000
111932.000000
112062.000000
112079.000000
112099.000000
112041.000000
112162.000000
112188.000000
112143.000000
112118.000000
112215.000000
112225.000000
112182.000000
112109.000000
112191.000000
112230.000000
112241.000000
112193.000000
112272.000000
112241.000000
112294.000000
112230.000000
112338.000000
112366.000000
112368.000000
112280.000000
112383.000000
112404.000000
112408.000000
112361.000000
112469.000000
112553.000000
112560.000000
112484.000000
112574.000000
112555.000000
112583.000000
112460.000000
112575.000000
112532.000000
112561.000000
112477.000000
112530.000000
112506.000000
112541.000000
112498.000000
112540.000000
112564.000000
112573.000000
112540.000000
112629.000000
112633.000000
112576.000000
112517.000000
112586.000000
112674.000000
112648.000000
112594.000000
112671.000000
112707.000000
112637.000000
112660.000000
112783.000000
112772.000000
112759.000000
112713.000000
112735.000000
112727.000000
112795.000000
112780.000000
112852.000000
112833.000000
112799.000000
112815.000000
112820.000000
112778.000000
112847.000000
112802.000000
112886.000000
112928.000000
112947.000000
112880.000000
112965.000000
112969.000000
112940.000000
112902.000000
113007.000000
112953.000000
112946.000000
112914.000000
112957.000000
112998.000000
113029.000000
112960.000000
113032.000000
113060.000000
113075.000000
113059.000000
113042.000000
113119.000000
113131.000000
113052.000000
113011.000000
113070.000000
112950.000000
112874.000000
112822.000000
112624.000000
112561.000000
113025.000000
113061.000000
113067.000000
112923.000000
112773.000000
112721.000000
112576.000000
112508.000000
112400.000000
112332.000000
112293.000000
112123.000000
112018.000000
112023.000000
111996.000000
111955.000000
111919.000000
111974.000000
111968.000000
111934.000000
111931.000000
111984.000000
112037.000000
112002.000000
111976.000000
112063.000000
112063.000000
111981.000000
111999.000000
112114.000000
112038.000000
112036.000000
112067.000000
112121.000000
112031.000000
112045.000000
112034.000000
112068.000000
112121.000000
112122.000000
112141.000000
112195.000000
112155.000000
112132.000000
112157.000000
112208.000000
112226.000000
112228.000000
112256.000000
112356.000000
112371.000000
112342.000000
112351.000000
112380.000000
112352.000000
112286.000000
112336.000000
112377.000000
112402.000000
112363.000000
112338.000000
112416.000000
112448.000000
112345.000000
112355.000000
112383.000000
112440.000000
112431.000000
112419.000000
112481.000000
112427.000000
112455.000000
112451.000000
112478.000000
112512.000000
112459.000000
112449.000000
112568.000000
112569.000000
112476.000000
112584.000000
112567.000000
112587.000000
112518.000000
112575.000000
112637.000000
112609.000000
112664.000000
112607.000000
112690.000000
112742.000000
112693.000000
112706.000000
112744.000000
112797.000000
112748.000000
112748.000000
112825.000000
112772.000000
112792.000000
112783.000000
112849.000000
112827.000000
112756.000000
112773.000000
112885.000000
112882.000000
112842.000000
112865.000000
112882.000000
112860.000000
112920.000000
112901.000000
112991.000000
112927.000000
112886.000000
112925.000000
112966.000000
113010.000000
112934.000000
112950.000000
112990.000000
113033.000000
112990.000000
113027.000000
113091.000000
113028.000000
113031.000000
113024.000000
113062.000000
113067.000000
112990.000000
113034.000000
113058.000000
113088.000000
113014.000000
113069.000000
113096.000000
113111.000000
113054.000000
113094.000000
113187.000000
113177.000000
113141.000000
113117.000000
113145.000000
113156.000000
113158.000000
113190.000000
113247.000000
113255.000000
113167.000000
113198.000000
113185.000000
113156.000000
113024.000000
112987.000000
112872.000000
112822.000000
112646.000000
112626.000000
112481.000000
112373.000000
112296.000000
112250.000000
112163.000000
112197.000000
112131.000000
112169.000000
112159.000000
112124.000000
112145.000000
112215.000000
112114.000000
112198.000000
112133.000000
112247.000000
112195.000000
112161.000000
112117.000000
112215.000000
112195.000000
112238.000000
112230.000000
112252.000000
112274.000000
112264.000000
112206.000000
112305.000000
112292.000000
112336.000000
112305.000000
112323.000000
112366.000000
112335.000000
112329.000000
112387.000000
112488.000000
112478.000000
112350.000000
112426.000000
112451.000000
112466.000000
112464.000000
112532.000000
112512.000000
112580.000000
112450.000000
112530.000000
112533.000000
112505.000000
112501.000000
112560.000000
112559.000000
112525.000000
112541.000000
112560.000000
112527.000000
112526.000000
112456.000000
112566.000000
112624.000000
112588.000000
112573.000000
112577.000000
112631.000000
112628.000000
112605.000000
112627.000000
112628.000000
112640.000000
112625.000000
112715.000000
112697.000000
112718.000000
112673.000000
112824.000000
112790.000000
112815.000000
112807.000000
112812.000000
112820.000000
112857.000000
112771.000000
112906.000000
112875.000000
112784.000000
112862.000000
112965.000000
112951.000000
112931.000000
112858.000000
112921.000000
112947.000000
112857.000000
112928.000000
112985.000000
113005.000000
112927.000000
112931.000000
113047.000000
112987.000000
112992.000000
113017.000000
113024.000000
113068.000000
112972.000000
113057.000000
113127.000000
113064.000000
113048.000000
112977.000000
113099.000000
113068.000000
113045.000000
113015.000000
113147.000000
113087.000000
113115.000000
113107.000000
113191.000000
113180.000000
113195.000000
113199.000000
113241.000000
113168.000000
113136.000000
113193.000000
113242.000000
113168.000000
113173.000000
113141.000000
113096.000000
113034.000000
112981.000000
112893.000000
112828.000000
112646.000000
112542.000000
112467.000000
112417.000000
112370.000000
112272.000000
112187.000000
112216.000000
112245.000000
112165.000000
112204.000000
112251.000000
112229.000000
112163.000000
112258.000000
112286.000000
112296.000000
112238.000000
112262.000000
112268.000000
112320.000000
112333.000000
112305.000000
112322.000000
112350.000000
112364.000000
112332.000000
112366.000000
112444.000000
112396.000000
112398.000000
112414.000000
112458.000000
112410.000000
112446.000000
112504.000000
112489.000000
112484.000000
112546.000000
112644.000000
112572.000000
112526.000000
112585.000000
112610.000000
112629.000000
112636.000000
112646.000000
112691.000000
112642.000000
112606.000000
112702.000000
112713.000000
112647.000000
112605.000000
112693.000000
112688.000000
112672.000000
112642.000000
112716.000000
112748.000000
112707.000000
112679.000000
112744.000000
112774.000000
112786.000000
112674.000000
112731.000000
112771.000000
112694.000000
112728.000000
112787.000000
112807.000000
112835.000000
112753.000000
112838.000000
112877.000000
112870.000000
112820.000000
112874.000000
112871.000000
112890.000000
112874.000000
112922.000000
112911.000000
112963.000000
112909.000000
113001.000000
112926.000000
112997.000000
112979.000000
113063.000000
112966.000000
112962.000000
112999.000000
113081.000000
113100.000000
113067.000000
113012.000000
113105.000000
113109.000000
113130.000000
112987.000000
113054.000000
113132.000000
113112.000000
113054.000000
113087.000000
113067.000000
113101.000000
113074.000000
113161.000000
113157.000000
113106.000000
113116.000000
113132.000000
113218.000000
113204.000000
113135.000000
113186.000000
113232.000000
113222.000000
113199.000000
113266.000000
113290.000000
113256.000000
113199.000000
113224.000000
113167.000000
113109.000000
112919.000000
112919.000000
112831.000000
112640.000000
112609.000000
112623.000000
112490.000000
112391.000000
112319.000000
112352.000000
112307.000000
112256.000000
112182.000000
112246.000000
112198.000000
112253.000000
112196.000000
112199.000000
112272.000000
112227.000000
112206.000000
112303.000000
112250.000000
112322.000000
112284.000000
112334.000000
112390.000000
112311.000000
112299.000000
112375.000000
112389.000000
112388.000000
112338.000000
112422.000000
112427.000000
112401.000000
112394.000000
112420.000000
112442.000000
112381.000000
112474.000000
112548.000000
112501.000000
112539.000000
112504.000000
112562.000000
112638.000000
112564.000000
112543.000000
112571.000000
112592.000000
112579.000000
112596.000000
112581.000000
112670.000000
112600.000000
112542.000000
112594.000000
112597.000000
112586.000000
112602.000000
112612.000000
112715.000000
112640.000000
112603.000000
112657.000000
112644.000000
112669.000000
112708.000000
112748.000000
112723.000000
112639.000000
112693.000000
112713.000000
112711.000000
112713.000000
112780.000000
112763.000000
112782.000000
112724.000000
112818.000000
112806.000000
112855.000000
112795.000000
112846.000000
112824.000000
112887.000000
112883.000000
112890.000000
112905.000000
112944.000000
112847.000000
112896.000000
112964.000000
112905.000000
112940.000000
112956.000000
112933.000000
113034.000000
112972.000000
112891.000000
113051.000000
113030.000000
112962.000000
112974.000000
113068.000000
113024.000000
113036.000000
112992.000000
113045.000000
113080.000000
112967.000000
113044.000000
113116.000000
113070.000000
113018.000000
113105.000000
113076.000000
113100.000000
113132.000000
113077.000000
113148.000000
113185.000000
113077.000000
113105.000000
113172.000000
113139.000000
113187.000000
113153.000000
113150.000000
113110.000000
112979.000000
112904.000000
112876.000000
112740.000000
112560.000000
112541.000000
112456.000000
112341.000000
112269.000000
112204.000000
112196.000000
112185.000000
112089.000000
112170.000000
112137.000000
112100.000000
112066.000000
112119.000000
112092.000000
112176.000000
112054.000000
112185.000000
112156.000000
112099.000000
112154.000000
112163.000000
112145.000000
112194.000000
112102.000000
112140.000000
112217.000000
112192.000000
112132.000000
112230.000000
112214.000000
112174.000000
112179.000000
112324.000000
112306.000000
112232.000000
112313.000000
112350.000000
112337.000000
112417.000000
112383.000000
112391.000000
112443.000000
112420.000000
112379.000000
112516.000000
112467.000000
112430.000000
112459.000000
112473.000000
112529.000000
112489.000000
112404.000000
112513.000000
112500.000000
112452.000000
112421.000000
112457.000000
112459.000000
112509.000000
112440.000000
112476.000000
112551.000000
112537.000000
112471.000000
112586.000000
112553.000000
112533.000000
112509.000000
112566.000000
112589.000000
112578.000000
112502.000000
112566.000000
112645.000000
112659.000000
112563.000000
112702.000000
112696.000000
112635.000000
112655.000000
112728.000000
112682.000000
112733.000000
112692.000000
112694.000000
112752.000000
112762.000000
112647.000000
112813.000000
112828.000000
112806.000000
112763.000000
112792.000000
112882.000000
112755.000000
112787.000000
112910.000000
112841.000000
112844.000000
112894.000000
112890.000000
112908.000000
112921.000000
112834.000000
112933.000000
112959.000000
112876.000000
112902.000000
112993.000000
112917.000000
112921.000000
112977.000000
112942.000000
112994.000000
112941.000000
112959.000000
113057.000000
113044.000000
113016.000000
113007.000000
113084.000000
113009.000000
113066.000000
113003.000000
113133.000000
113093.000000
113022.000000
112980.000000
113054.000000
112965.000000
112864.000000
112680.000000
112684.000000
112609.000000
112486.000000
112262.000000
112267.000000
112128.000000
112128.000000
111979.000000
112019.000000
112045.000000
111931.000000
111904.000000
112037.000000
111978.000000
111923.000000
111911.000000
112018.000000
111983.000000
111934.000000
111949.000000
112010.000000
111973.000000
111954.000000
111996.000000
111974.000000
111963.000000
112052.000000
111948.000000
112055.000000
112073.000000
112001.000000
112017.000000
112066.000000
112035.000000
112043.000000
112090.000000
112081.000000
112099.000000
112117.000000
112137.000000
112165.000000
112200.000000
112197.000000
112149.000000
112213.000000
112252.000000
112171.000000
112253.000000
112290.000000
112253.000000
112248.000000
112296.000000
112239.000000
112320.000000
112280.000000
112272.000000
112356.000000
112313.000000
112185.000000
112363.000000
112342.000000
112308.000000
112243.000000
112340.000000
112395.000000
112318.000000
112305.000000
112367.000000
112389.000000
112387.000000
112351.000000
112364.000000
112448.000000
112440.000000
112350.000000
112480.000000
112526.000000
112462.000000
112465.000000
112524.000000
112520.000000
112507.000000
112502.000000
112501.000000
112613.000000
112544.000000
112515.000000
112646.000000
112622.000000
112626.000000
112610.000000
112645.000000
112635.000000
112682.000000
112603.000000
112669.000000
112722.000000
112674.000000
112645.000000
112747.000000
112723.000000
112758.000000
112677.000000
112777.000000
112715.000000
112777.000000
112759.000000
112714.000000
112730.000000
112724.000000
112551.000000
112493.000000
112358.000000
112341.000000
112155.000000
111997.000000
111971.000000
111933.000000
111786.000000
111706.000000
111696.000000
111633.000000
111616.000000
111517.000000
111637.000000
111575.000000
111626.000000
111510.000000
111661.000000
111534.000000
111599.000000
111558.000000
111620.000000
111661.000000
111589.000000
111535.000000
111560.000000
111631.000000
111618.000000
111503.000000
111690.000000
111627.000000
111673.000000
111535.000000
111717.000000
111664.000000
111706.000000
111640.000000
111764.000000
111799.000000
111757.000000
111769.000000
111820.000000
111868.000000
111832.000000
111789.000000
111923.000000
111938.000000
111922.000000
111933.000000
111939.000000
111972.000000
111896.000000
111887.000000
111953.000000
111908.000000
111976.000000
111855.000000
111970.000000
111945.000000
111998.000000
111957.000000
111989.000000
112029.000000
111942.000000
111957.000000
112044.000000
112002.000000
112045.000000
111988.000000
112094.000000
112049.000000
112080.000000
112022.000000
112113.000000
112092.000000
112119.000000
112102.000000
112124.000000
112167.000000
112113.000000
112185.000000
112145.000000
112221.000000
112147.000000
112228.000000
112208.000000
112210.000000
112200.000000
112212.000000
112253.000000
112317.000000
112265.000000
112279.000000
112302.000000
112324.000000
112330.000000
112283.000000
112412.000000
112313.000000
112297.000000
112330.000000
112336.000000
112379.000000
112393.000000
112394.000000
112410.000000
112412.000000
112419.000000
112398.000000
112433.000000
112482.000000
112426.000000
112408.000000
112499.000000
112485.000000
112486.000000
112527.000000
112574.000000
112475.000000
112509.000000
112528.000000
112561.000000
112542.000000
112589.000000
112594.000000
112628.000000
112637.000000
112599.000000
112589.000000
112666.000000
112686.000000
112679.000000
112648.000000
112652.000000
112558.000000
112534.000000
112433.000000
112353.000000
112210.000000
112060.000000
111908.000000
111906.000000
111797.000000
111687.000000
111588.000000
111559.000000
111453.000000
111408.000000
111384.000000
111402.000000
111346.000000
111340.000000
111391.000000
111380.000000
111347.000000
111335.000000
111320.000000
111320.000000
111347.000000
111319.000000
111334.000000
111381.000000
111337.000000
111318.000000
111346.000000
111402.000000
111362.000000
111380.000000
111367.000000
111376.000000
111392.000000
111430.000000
111382.000000
111460.000000
111526.000000
111545.000000
111491.000000
111612.000000
111633.000000
111640.000000
111694.000000
111714.000000
111718.000000
111728.000000
111686.000000
111756.000000
111758.000000
111718.000000
111834.000000
111787.000000
111839.000000
111798.000000
111786.000000
111819.000000
111794.000000
111804.000000
111798.000000
111823.000000
111867.000000
111828.000000
111848.000000
111881.000000
111921.000000
111863.000000
111916.000000
111965.000000
111901.000000
111867.000000
111907.000000
111981.000000
111933.000000
111910.000000
111894.000000
111996.000000
111994.000000
111975.000000
112019.000000
112054.000000
112057.000000
111944.000000
112099.000000
112100.000000
112031.000000
112044.000000
112163.000000
112168.000000
112136.000000
112081.000000
112110.000000
112092.000000
112119.000000
112084.000000
112174.000000
112221.000000
112198.000000
112125.000000
112174.000000
112180.000000
112285.000000
112229.000000
112311.000000
112212.000000
112274.000000
112267.000000
112273.000000
112328.000000
112368.000000
112309.000000
112309.000000
112340.000000
112320.000000
112261.000000
112360.000000
112416.000000
112313.000000
112366.000000
112337.000000
112446.000000
112424.000000
112408.000000
112506.000000
112493.000000
112536.000000
112394.000000
112510.000000
112494.000000
112466.000000
112452.000000
112538.000000
112570.000000
112547.000000
112527.000000
112627.000000
112559.000000
112547.000000
112411.000000
112514.000000
112416.000000
112302.000000
112168.000000
112104.000000
111903.000000
111778.000000
111673.000000
111629.000000
111513.000000
111391.000000
111335.000000
111395.000000
111262.000000
111292.000000
111194.000000
111324.000000
111275.000000
111263.000000
111243.000000
111268.000000
111282.000000
111310.000000
111243.000000
111240.000000
111326.000000
111316.000000
111240.000000
111366.000000
111450.000000
111412.000000
111330.000000
111359.000000
111413.000000
111473.000000
111431.000000
111496.000000
111468.000000
111396.000000
111497.000000
111590.000000
111591.000000
111592.000000
111587.000000
111660.000000
111620.000000
111681.000000
111650.000000
111779.000000
111726.000000
111756.000000
111751.000000
111883.000000
111826.000000
111739.000000
111730.000000
111816.000000
111885.000000
111801.000000
111766.000000
111884.000000
111870.000000
111838.000000
111824.000000
111879.000000
111897.000000
111834.000000
111881.000000
111901.000000
111938.000000
111943.000000
111907.000000
111936.000000
111984.000000
112000.000000
111943.000000
112023.000000
111974.000000
112007.000000
112035.000000
112045.000000
112044.000000
111996.000000
112038.000000
112096.000000
112069.000000
112045.000000
112076.000000
112171.000000
112104.000000
112114.000000
112128.000000
112144.000000
112219.000000
112158.000000
112163.000000
112250.000000
112221.000000
112234.000000
112204.000000
112245.000000
112285.000000
112256.000000
112239.000000
112358.000000
112283.000000
112234.000000
112312.000000
112356.000000
112322.000000
112362.000000
112350.000000
112421.000000
112381.000000
112321.000000
112353.000000
112372.000000
112414.000000
112472.000000
112429.000000
112490.000000
112462.000000
112418.000000
112459.000000
112426.000000
112523.000000
112455.000000
112456.000000
112526.000000
112507.000000
112504.000000
112549.000000
112619.000000
112599.000000
112531.000000
112498.000000
112594.000000
112613.000000
112551.000000
112525.000000
112397.000000
112288.000000
112220.000000
112077.000000
112018.000000
111860.000000
111725.000000
111642.000000
111564.000000
111548.000000
111457.000000
111422.000000
111374.000000
111487.000000
111378.000000
111387.000000
111447.000000
111384.000000
111395.000000
111366.000000
111449.000000
111462.000000
111386.000000
111518.000000
111494.000000
111473.000000
111504.000000
111545.000000
111505.000000
111553.000000
111560.000000
111541.000000
111619.000000
111632.000000
111580.000000
111624.000000
111671.000000
111711.000000
111664.000000
111736.000000
111737.000000
111783.000000
111722.000000
111780.000000
111854.000000
111873.000000
111820.000000
111841.000000
111851.000000
111886.000000
111821.000000
111942.000000
111907.000000
111888.000000
111922.000000
111958.000000
111992.000000
111937.000000
111849.000000
111965.000000
111893.000000
111974.000000
111910.000000
111944.000000
111938.000000
111922.000000
111918.000000
112060.000000
112024.000000
111958.000000
111941.000000
112069.000000
112033.000000
112016.000000
111961.000000
112090.000000
112106.000000
112066.000000
112072.000000
112141.000000
112088.000000
112132.000000
112064.000000
112182.000000
112147.000000
112198.000000
112147.000000
112246.000000
112242.000000
112244.000000
112166.000000
112307.000000
112244.000000
112222.000000
112222.000000
112353.000000
112290.000000
112290.000000
112263.000000
112287.000000
112316.000000
112357.000000
112251.000000
112362.000000
112372.000000
112376.000000
112349.000000
112471.000000
112411.000000
112420.000000
112346.000000
112447.000000
112496.000000
112466.000000
112390.000000
112448.000000
112504.000000
112443.000000
112383.000000
112513.000000
112502.000000
112540.000000
112504.000000
112570.000000
112510.000000
112558.000000
112504.000000
112560.000000
112598.000000
112542.000000
112481.000000
112506.000000
112383.000000
112226.000000
112039.000000
112007.000000
111890.000000
111811.000000
111636.000000
111631.000000
111546.000000
111514.000000
111327.000000
111432.000000
111422.000000
111292.000000
111276.000000
111412.000000
111423.000000
111347.000000
111381.000000
111416.000000
111353.000000
111382.000000
111362.000000
111465.000000
111509.000000
111513.000000
111466.000000
111490.000000
111487.000000
111511.000000
111532.000000
111550.000000
111558.000000
111600.000000
111559.000000
111660.000000
111671.000000
111655.000000
111700.000000
111716.000000
111768.000000
111725.000000
111693.000000
111817.000000
111888.000000
111802.000000
111837.000000
111903.000000
111954.000000
111892.000000
111849.000000
111962.000000
111937.000000
111825.000000
111910.000000
111957.000000
111874.000000
111885.000000
111869.000000
111927.000000
111972.000000
111939.000000
111845.000000
111945.000000
111982.000000
111992.000000
111915.000000
112024.000000
111993.000000
111988.000000
112028.000000
111992.000000
111972.000000
112023.000000
112013.000000
112083.000000
112105.000000
112081.000000
112041.000000
112110.000000
112182.000000
112088.000000
112054.000000
112144.000000
112182.000000
112190.000000
112198.000000
112193.000000
112230.000000
112154.000000
112166.000000
112198.000000
112255.000000
112247.000000
112240.000000
112327.000000
112315.000000
112283.000000
112305.000000
112339.000000
112357.000000
112316.000000
112272.000000
112304.000000
112350.000000
112333.000000
112360.000000
112410.000000
112398.000000
112377.000000
112348.000000
112363.000000
112393.000000
112356.000000
112415.000000
112479.000000
112441.000000
112397.000000
112432.000000
112542.000000
112510.000000
112431.000000
112458.000000
112553.000000
112444.000000
112491.000000
112493.000000
112551.000000
112522.000000
112449.000000
112422.000000
112474.000000
112334.000000
112232.000000
112160.000000
112006.000000
111864.000000
111678.000000
111669.000000
111535.000000
111459.000000
111322.000000
111362.000000
111282.000000
111262.000000
111219.000000
111171.000000
111239.000000
111166.000000
111206.000000
111212.000000
111179.000000
111229.000000
111102.000000
111159.000000
111199.000000
111237.000000
111211.000000
111277.000000
111217.000000
111209.000000
111195.000000
111247.000000
111261.000000
111287.000000
111281.000000
111326.000000
111326.000000
111361.000000
111324.000000
111362.000000
111447.000000
111500.000000
111398.000000
111558.000000
111598.000000
111584.000000
111572.000000
111645.000000
111692.000000
111610.000000
111594.000000
111680.000000
111718.000000
111683.000000
111623.000000
111727.000000
111749.000000
111626.000000
111626.000000
111705.000000
111738.000000
111734.000000
111664.000000
111772.000000
111781.000000
111785.000000
111694.000000
111775.000000
111852.000000
111780.000000
111725.000000
111792.000000
111854.000000
111849.000000
111821.000000
111832.000000
111837.000000
111853.000000
111820.000000
111933.000000
111919.000000
111888.000000
111906.000000
111980.000000
112001.000000
112009.000000
111945.000000
112005.000000
112055.000000
111983.000000
111977.000000
112097.000000
112055.000000
112035.000000
112020.000000
112061.000000
112042.000000
112130.000000
112061.000000
112177.000000
112141.000000
112149.000000
112098.000000
112158.000000
112169.000000
112175.000000
112162.000000
112220.000000
112244.000000
112220.000000
112198.000000
112235.000000
112218.000000
112256.000000
112240.000000
112265.000000
