ir,red
117910,102608
117931,102610
117988,102650
118066,102723
118123,102731
118199,102725
118199,102683
118295,102738
118383,102849
118406,102846
118514,102866
118543,102860
118642,102936
118786,103005
119106,103112
119149,103113
119152,103105
119104,103085
119217,103113
119243,103167
119265,103175
119234,103154
119169,103092
119206,103147
119244,103153
119226,103160
119195,103118
119142,103085
119129,103115
119126,103101
119085,103088
119066,103065
118960,103024
118998,103063
118965,103056
118973,103052
118924,103000
118871,102957
118876,103012
118900,103027
118870,103015
118850,102981
118809,102936
118864,102991
118889,103022
118907,102988
118902,102993
118857,102956
118936,103018
118995,103070
118999,103076
119005,103054
118997,103029
119053,103076
119095,103108
119161,103116
119163,103115
119149,103092
119208,103121
119284,103164
119315,103151
119279,103142
119318,103148
119383,103200
119429,103235
119456,103210
119483,103235
119455,103208
119561,103289
119573,103302
119637,103306
119636,103285
119621,103282
119686,103340
119767,103354
119759,103365
119771,103362
119757,103338
119843,103404
119896,103438
119905,103397
119905,103392
119912,103402
119980,103459
120006,103455
120044,103480
120006,103446
120068,103457
120138,103513
120178,103523
120172,103519
120195,103507
120171,103479
120292,103561
120310,103565
120293,103575
120319,103567
120335,103566
120391,103596
120451,103615
120457,103624
120444,103621
120463,103629
120567,103664
120576,103676
120598,103691
120601,103656
120611,103655
120689,103723
120742,103756
120724,103740
120714,103717
120721,103741
120817,103769
120795,103777
120816,103726
120740,103690
120702,103716
120684,103710
120532,103678
120354,103567
120064,103434
119766,103311
119457,103191
119128,103023
118782,102905
118415,102742
118109,102607
117869,102541
117618,102465
117376,102360
117239,102259
117089,102240
117030,102248
116939,102197
116821,102153
116784,102123
116713,102095
116751,102095
116722,102105
116670,102098
116669,102079
116692,102085
116754,102142
116810,102152
116792,102125
116791,102093
116866,102176
116928,102200
116992,102228
117041,102191
117039,102222
117125,102270
117241,102317
117263,102332
117373,102367
117361,102367
117468,102411
117552,102436
117590,102449
117662,102506
117674,102473
117762,102484
117851,102574
117873,102585
117902,102581
117926,102532
118000,102597
118086,102663
118114,102642
118207,102706
118227,102640
118304,102705
118400,102800
118450,102794
118528,102810
118512,102839
118648,102895
118739,102940
118815,102964
118864,102958
118843,102942
118974,103005
119007,103049
119046,103037
119061,103043
119002,103005
119054,103028
119119,103067
119121,103031
119088,103029
119012,102994
119063,103030
119057,103055
119035,103038
118982,103016
118927,102948
118944,102972
118934,103001
118908,102995
118803,102937
118795,102918
118817,102935
118803,102952
118803,102948
118774,102911
118688,102863
118754,102890
118799,102913
118754,102904
118783,102915
118729,102838
118800,102907
118836,102979
118853,102966
118838,102931
118865,102909
118936,102976
118977,103021
118995,103018
119021,102987
118989,103005
119059,103036
119105,103056
119172,103073
119166,103080
119142,103082
119226,103122
119323,103153
119355,103161
119366,103132
119328,103123
119429,103182
119478,103216
119533,103211
119529,103234
119535,103192
119647,103295
119674,103264
119739,103321
119738,103285
119721,103268
119772,103343
119829,103380
119884,103357
119865,103322
119913,103342
119936,103408
120016,103384
120019,103392
120006,103411
120030,103405
120099,103475
120161,103505
120165,103473
120118,103456
120160,103493
120214,103528
120284,103516
120275,103501
120244,103509
120294,103503
120353,103574
120402,103597
120417,103598
120355,103579
120412,103552
120449,103603
120521,103655
120482,103618
120464,103599
120517,103623
120594,103654
120559,103681
120626,103677
120586,103640
120596,103651
120667,103705
120723,103715
120693,103709
120704,103679
120701,103699
120770,103747
120807,103774
120836,103717
120783,103714
120769,103760
120796,103744
120783,103745
120720,103679
120486,103598
120284,103526
120086,103439
119744,103283
119403,103139
118992,102930
118670,102773
118351,102680
117977,102551
117715,102470
117417,102320
117256,102272
117148,102256
117055,102219
116945,102126
116751,102077
116721,102049
116730,102082
116668,102054
116624,102070
116537,101954
116548,101990
116599,102024
116561,102042
116579,102042
116593,101990
116616,102013
116708,102076
116700,102104
116746,102061
116765,102089
116839,102112
116933,102193
116970,102191
117025,102175
117035,102204
117115,102261
117250,102294
117257,102332
117325,102316
117353,102322
117403,102373
117526,102421
117521,102457
117583,102447
117602,102427
117694,102488
117748,102510
117818,102517
117864,102554
117842,102491
117927,102571
118011,102625
118101,102668
118121,102664
118144,102613
118208,102696
118361,102742
118442,102788
118464,102792
118495,102764
118584,102822
118677,102886
118739,102888
118720,102891
118747,102873
118828,102920
118871,102971
118863,102956
118828,102918
118819,102874
118840,102909
118860,102941
118854,102939
118798,102866
118719,102859
118747,102877
118734,102902
118713,102876
118701,102854
118612,102806
118662,102837
118630,102858
118585,102798
118580,102778
118501,102760
118577,102804
118572,102805
118553,102828
118510,102803
118540,102779
118579,102813
118616,102862
118578,102851
118548,102821
118577,102816
118663,102866
118698,102894
118742,102870
118711,102867
118703,102851
118799,102914
118830,102968
118808,102970
118826,102945
118877,102907
118953,102992
118998,103011
119049,103029
119045,102964
119045,102990
119170,103055
119182,103092
119206,103078
119254,103083
119232,103058
119343,103159
119388,103166
119422,103181
119399,103165
119444,103161
119529,103217
119554,103239
119597,103249
119606,103239
119610,103203
119689,103283
119706,103295
119748,103312
119728,103253
119759,103309
119829,103346
119868,103374
119877,103356
119857,103334
119890,103350
119942,103417
119995,103420
119991,103408
119992,103372
120002,103409
120111,103467
120140,103477
120141,103455
120132,103446
120137,103440
120206,103491
120247,103530
120264,103485
120235,103495
120253,103490
120346,103548
120383,103559
120374,103550
120327,103518
120363,103552
120435,103606
120452,103610
120489,103612
120468,103599
120479,103606
120562,103663
120565,103650
120572,103634
120543,103629
120566,103637
120599,103694
120619,103676
120607,103657
120523,103627
120546,103615
120497,103609
120344,103557
120131,103402
119761,103290
119473,103169
119179,103041
118787,102898
118444,102738
118035,102552
117771,102471
117604,102405
117396,102353
117236,102275
117021,102177
116915,102127
116894,102126
116799,102118
116725,102065
116609,102006
116589,102009
116581,102025
116516,101998
116479,101975
116427,101930
116456,101961
116515,102002
116478,102008
116557,101984
116528,101950
116553,102050
116644,102058
116676,102079
116680,102042
116676,102033
116763,102105
116819,102150
116847,102154
116899,102137
116924,102133
116977,102184
117064,102235
117098,102238
117091,102217
117120,102211
117192,102297
117269,102322
117299,102319
117313,102323
117280,102299
117414,102393
117505,102394
117472,102442
117552,102425
117546,102417
117655,102456
117722,102514
117799,102505
117852,102557
117873,102545
117941,102585
118061,102653
118126,102641
118145,102616
118171,102622
118261,102722
118352,102795
118318,102762
118353,102729
118353,102704
118381,102773
118397,102767
118373,102736
118361,102711
118279,102669
118349,102776
118367,102756
118298,102726
118258,102686
118204,102638
118215,102659
118218,102677
118193,102667
118103,102629
118070,102623
118105,102639
118108,102647
118079,102655
118052,102576
117974,102564
118036,102628
118039,102591
118059,102621
117995,102577
117996,102572
118050,102641
118092,102645
118092,102663
118057,102631
118040,102627
118144,102659
118162,102680
118162,102698
118156,102657
118172,102661
118218,102703
118277,102704
118272,102715
118271,102685
118273,102695
118368,102754
118382,102768
118422,102773
118413,102737
118405,102767
118482,102785
118507,102859
118534,102800
118515,102781
118514,102785
118587,102862
118605,102846
118635,102848
118567,102794
118619,102793
118662,102880
118715,102891
118725,102867
118709,102876
118708,102893
118755,102911
118794,102933
118793,102903
118735,102846
118753,102914
118817,102936
118812,102955
118850,102903
118839,102890
118861,102920
118892,102973
118902,102971
118950,102983
118889,102939
118951,102974
119006,103016
119026,103007
119069,103040
119048,102981
119081,103020
119140,103090
119217,103086
119231,103084
119231,103044
119266,103103
119335,103146
119372,103162
119398,103123
119381,103168
119385,103135
119443,103200
119449,103182
119407,103175
119303,103093
119266,103052
119171,103057
119001,102973
118733,102844
118443,102676
118138,102580
117841,102502
117565,102399
117301,102267
117032,102150
116854,102110
116727,102074
116595,101982
116474,101938
116334,101851
116210,101842
116161,101815
116063,101786
115943,101716
115844,101671
115852,101687
115865,101706
115821,101678
115823,101663
115765,101656
115765,101683
115820,101710
115836,101699
115820,101691
115832,101677
115891,101692
115979,101757
115990,101761
116013,101763
115993,101741
116107,101780
116147,101810
116184,101829
116177,101831
116171,101799
116274,101882
116346,101891
116376,101914
116324,101909
116330,101889
116427,101944
116456,101952
116498,101972
116480,101969
116454,101922
116534,101997
116609,102055
116629,102054
116618,102010
116618,102015
116698,102061
116798,102119
116832,102126
116855,102133
116867,102099
117000,102178
117062,102211
117113,102235
117151,102259
117183,102213
117293,102300
117351,102325
117357,102327
117406,102352
117387,102314
117429,102340
117472,102339
117471,102354
117454,102311
117428,102286
117437,102362
117452,102364
117448,102352
117417,102328
117360,102275
117420,102330
117432,102331
117401,102309
117342,102273
117349,102252
117394,102298
117363,102318
117365,102307
117337,102287
117308,102249
117361,102339
117381,102368
117383,102345
117416,102318
117402,102293
117521,102348
117506,102381
117533,102347
117529,102359
117563,102368
117661,102406
117700,102457
117706,102455
117749,102414
117702,102416
117817,102496
117873,102500
117867,102520
117883,102511
117914,102503
118014,102558
118082,102567
118089,102612
118129,102566
118136,102597
118213,102666
118294,102689
118302,102707
118319,102668
118372,102695
118481,102782
118490,102742
118539,102740
118521,102731
118566,102753
118671,102807
118677,102821
118711,102837
118695,102816
118737,102844
118819,102892
118840,102898
118872,102887
118857,102869
118909,102896
118970,102951
119013,102946
119055,102954
119048,102939
119079,102976
119146,103039
119156,103021
119162,103047
119167,102986
119227,103033
119289,103076
119307,103071
119315,103107
119303,103051
119339,103092
119447,103121
119428,103110
119434,103132
119436,103094
119451,103124
119546,103210
119564,103181
119569,103169
119593,103150
119618,103201
119675,103235
119692,103265
119683,103237
119643,103195
119669,103217
119603,103238
119507,103129
119349,103044
119062,102905
118777,102819
118503,102708
118142,102568
117765,102405
117420,102243
117162,102166
116960,102099
116746,102009
116571,101930
116374,101810
116281,101834
116231,101805
116083,101753
115999,101698
115887,101635
115830,101629
115810,101653
115755,101663
115726,101611
115672,101554
115739,101615
115779,101595
115790,101616
115768,101609
115747,101563
115802,101627
115902,101652
115886,101698
115905,101701
115926,101643
116013,101697
116098,101773
116153,101761
116144,101780
116139,101757
116232,101807
116315,101849
116348,101842
116371,101865
116368,101828
116459,101879
116505,101930
116540,101911
116561,101893
116527,101860
116638,101954
116644,101973
116669,101974
116710,102006
116728,101983
116815,102025
116843,102061
116897,102065
116924,102083
116986,102083
117071,102144
117155,102170
117221,102197
117286,102231
117316,102202
117458,102295
117553,102340
117601,102353
117603,102337
117642,102348
117744,102408
117735,102442
117768,102448
117792,102415
117783,102386
117844,102432
117867,102445
117845,102411
117816,102385
117760,102368
117799,102424
117778,102404
117756,102400
117696,102357
117621,102328
117652,102348
117648,102372
117609,102325
117505,102289
117490,102266
117554,102335
117552,102301
117543,102283
117463,102272
117488,102271
117486,102315
117547,102329
117517,102291
117470,102272
117471,102274
117541,102300
117561,102303
117531,102304
117542,102313
117575,102302
117638,102361
117650,102377
117646,102387
117648,102377
117691,102352
117757,102400
117827,102452
117828,102424
117849,102394
117884,102421
117953,102470
117997,102450
117980,102482
118013,102472
118052,102484
118085,102542
118119,102560
118156,102561
118164,102527
118195,102543
118282,102609
118299,102581
118333,102626
118319,102607
118375,102622
118451,102670
118481,102716
118532,102690
118489,102655
118529,102694
118595,102731
118656,102701
118634,102701
118640,102696
118668,102701
118696,102784
118781,102803
118791,102768
118754,102716
118809,102783
118883,102836
118906,102822
118917,102834
118912,102794
118918,102830
118979,102886
119006,102897
119053,102882
119034,102870
119103,102886
119133,102938
119173,102914
119152,102925
119192,102923
119233,102957
119276,102987
119316,103011
119340,102964
119290,102967
119329,103004
119398,103030
119384,103017
119376,102988
119316,102990
119291,102947
119208,102928
119033,102851
118802,102765
118474,102570
118192,102482
117860,102330
117466,102190
117098,102058
116800,101913
116593,101818
116451,101784
116218,101698
116063,101662
115895,101553
115811,101557
115727,101554
115651,101500
115519,101426
115418,101350
115398,101364
115410,101388
115307,101358
115307,101337
115217,101267
115297,101323
115288,101317
115321,101370
115319,101350
115287,101330
115393,101393
115450,101409
115468,101429
115503,101416
115538,101425
115605,101497
115691,101515
115708,101514
115723,101520
115734,101488
115832,101552
115887,101592
115885,101578
115904,101577
115925,101566
115946,101628
116039,101629
116036,101674
116048,101641
116031,101636
116100,101686
116172,101736
116178,101693
116197,101712
116185,101702
116268,101754
116310,101782
116373,101798
116349,101814
116377,101797
116506,101854
116621,101908
116665,101904
116669,101921
116742,101909
116842,101965
116892,102036
116919,102019
116918,102011
116917,101981
117010,102027
116982,102066
117000,102021
116984,102018
116972,102027
117040,102050
116979,102070
116962,102070
116942,102015
116928,102006
116984,102036
116983,102038
116969,102023
116928,101993
116871,101963
116910,101995
116924,102019
116860,102004
116855,101936
116854,101932
116905,102040
116924,102023
116937,101980
116896,101988
116905,101978
116959,102028
116991,102036
116997,102035
116994,102021
117014,102013
117074,102057
117088,102099
117116,102108
117106,102075
117206,102097
117256,102138
117301,102197
117340,102124
117321,102128
117359,102185
117464,102245
117512,102259
117508,102272
117514,102217
117586,102239
117656,102310
117725,102342
117774,102329
117783,102317
117829,102353
117899,102410
117954,102432
118005,102430
117994,102429
118044,102444
118151,102513
118207,102518
118189,102509
118236,102493
118260,102531
118371,102617
118399,102649
118437,102603
118418,102576
118463,102600
118530,102659
118579,102680
118604,102689
118591,102607
118640,102676
118681,102712
118751,102748
118781,102731
118778,102725
118781,102738
118861,102803
118870,102783
118884,102796
118883,102756
118945,102806
118998,102828
119032,102833
119023,102845
119002,102827
119078,102863
119136,102870
119129,102886
119146,102877
119093,102850
119179,102883
119213,102916
119216,102901
119205,102937
119231,102907
119264,102950
119333,102979
119385,103017
119390,102948
119361,102962
119388,103000
119478,103037
119496,103038
119528,103038
119473,102993
119538,103038
119583,103076
119547,103063
119500,102998
119360,102936
119238,102897
118952,102825
118693,102668
118345,102515
117947,102342
117611,102166
117264,102078
116940,101961
116700,101861
116449,101749
116306,101738
116173,101670
116010,101580
115906,101557
115781,101464
115711,101477
115662,101461
115599,101425
115516,101399
115422,101341
115463,101381
115468,101382
115479,101357
115488,101343
115410,101321
115477,101381
115535,101418
115554,101410
115601,101411
115589,101412
115675,101431
115782,101540
115781,101525
115822,101527
115857,101514
115964,101574
116033,101585
116029,101625
116074,101619
116101,101602
116134,101678
116216,101681
116267,101729
116283,101698
116258,101681
116327,101747
116364,101752
116375,101771
116389,101721
116397,101772
116490,101810
116512,101819
116579,101849
116583,101839
116618,101832
116693,101900
116781,101905
116791,101948
116838,101931
116907,101936
117025,102025
117125,102030
117179,102066
117221,102077
117277,102068
117338,102162
117386,102164
117364,102159
117330,102130
117349,102121
117419,102164
117444,102167
117357,102152
117394,102121
117342,102087
117353,102134
117317,102151
117304,102094
117247,102062
117211,102041
117242,102103
117204,102100
117168,102048
117095,102010
117063,102011
117111,102036
117080,102029
117048,101985
116998,101960
116971,101979
117039,102033
117005,102041
117000,101992
116973,101970
117000,101988
117049,102019
117068,102013
117063,102008
117010,101954
117039,102009
117129,102029
117144,102035
117171,102074
117172,102024
117180,102043
117213,102103
117263,102119
117260,102088
117284,102097
117333,102132
117390,102149
117393,102184
117402,102135
117378,102166
117447,102169
117529,102223
117529,102214
117595,102228
117561,102198
117589,102194
117674,102271
117681,102302
117707,102280
117711,102284
117750,102279
117853,102319
117827,102329
117840,102335
117865,102322
117882,102340
117980,102406
118004,102414
118005,102339
117974,102336
118006,102385
118098,102443
118099,102464
118144,102451
118127,102384
118167,102462
118223,102476
118240,102481
118230,102484
118240,102438
118236,102505
118337,102512
118355,102507
118346,102499
118301,102450
118351,102510
118425,102582
118370,102562
118403,102509
118386,102507
118453,102557
118507,102600
118520,102569
118481,102578
118503,102581
118541,102578
118590,102647
118611,102652
118627,102615
118575,102582
118640,102651
118672,102681
118694,102667
118700,102641
118674,102618
118710,102671
118746,102669
118699,102646
118679,102640
118500,102540
118434,102547
118313,102476
118050,102370
117748,102192
117394,102053
117120,101970
116838,101879
116562,101729
116291,101649
116055,101532
115955,101504
115817,101501
115652,101380
115514,101322
115376,101237
115299,101275
115231,101266
115110,101186
115065,101148
114981,101080
114988,101112
114991,101133
114999,101108
114955,101098
114917,101049
114987,101127
115052,101149
115059,101146
115052,101176
115069,101168
115175,101210
115232,101249
115259,101224
115320,101253
115313,101247
115445,101318
115498,101328
115515,101336
115537,101350
115552,101329
115642,101399
115696,101384
115730,101394
115747,101416
115745,101406
115810,101485
115856,101509
115918,101533
115908,101496
115933,101481
115997,101560
116035,101558
116071,101567
116121,101570
116109,101576
116250,101622
116318,101686
116374,101676
116440,101692
116491,101753
116653,101826
116725,101867
116773,101858
116830,101854
116891,101866
116957,101930
117024,101985
117096,101970
117059,101953
117100,101938
117128,102014
117170,102025
117165,101985
117140,101962
117126,101953
117184,102024
117188,102029
117165,102001
117149,101953
117111,101933
117179,102006
117172,101998
117163,101977
117123,101953
117104,101932
117177,101987
117152,101995
117128,102003
117104,101987
117134,102012
117218,102053
117223,102037
117218,102039
117220,101975
117228,102004
117308,102054
117325,102043
117345,102078
117352,102030
117425,102066
117446,102091
117475,102124
117484,102134
117491,102110
117574,102138
117607,102201
117669,102199
117689,102188
117710,102164
117753,102219
117872,102275
117899,102289
117950,102301
117920,102252
117964,102337
118028,102353
118068,102344
118110,102383
118118,102372
118191,102394
118245,102458
118285,102455
118287,102440
118327,102449
118385,102462
118442,102472
118481,102528
118478,102527
118462,102501
118503,102543
118617,102553
118612,102576
118629,102613
118616,102565
118708,102614
118743,102649
118759,102658
118756,102646
118763,102631
118829,102648
118886,102686
118932,102711
118924,102708
118908,102655
118993,102722
119020,102742
119044,102746
119071,102763
119084,102731
119135,102767
119149,102819
119187,102809
119169,102792
119184,102757
119245,102807
119244,102825
119300,102870
119264,102866
119268,102822
119316,102849
119341,102912
119375,102924
119400,102889
119353,102857
119406,102898
119478,102954
119451,102926
119465,102927
119481,102900
119574,102992
119605,103001
119608,102968
119650,103006
119588,102960
119720,102997
119744,103061
119762,103067
119737,103007
119710,103019
119763,103065
119795,103069
119716,103048
119669,102965
119522,102910
119379,102882
119153,102794
118783,102626
118371,102426
117977,102236
117637,102134
117235,102023
116909,101906
116639,101745
116416,101632
116299,101633
116180,101549
116009,101499
115857,101413
115772,101374
115731,101381
115659,101360
115584,101323
115502,101271
115408,101251
115444,101307
115487,101302
115458,101292
115445,101275
115397,101222
115482,101271
115534,101306
115560,101334
115550,101302
115571,101288
115659,101392
115738,101408
115730,101405
115768,101387
115776,101397
115885,101458
115929,101506
115977,101500
115935,101461
116000,101481
116061,101550
116122,101574
116132,101583
116120,101536
116156,101548
116209,101585
116241,101610
116246,101642
116230,101608
116243,101589
116367,101670
116360,101668
116434,101682
116396,101640
116506,101694
116601,101780
116634,101763
116700,101802
116694,101786
116771,101818
116863,101896
116944,101904
116961,101890
116983,101903
117021,101914
117115,101985
117093,102012
117092,101990
117089,101946
117066,101915
117136,101976
117109,101988
117058,101936
117014,101871
117020,101933
117050,101934
117018,101920
117014,101899
116940,101857
116936,101863
116939,101909
116928,101902
116883,101880
116865,101836
116856,101847
116907,101888
116904,101839
116864,101857
116830,101816
116853,101853
116928,101894
116945,101866
116917,101840
116913,101852
116954,101870
117029,101913
117020,101921
117080,101963
117031,101879
117117,101924
117174,101980
117225,101986
117264,102031
117268,101963
117327,102002
117382,102071
117436,102063
117447,102076
117440,102043
117547,102104
117584,102144
117662,102153
117672,102147
117661,102157
117750,102179
117760,102239
117816,102253
117836,102256
117828,102179
117918,102227
117979,102283
117994,102271
117954,102300
117971,102252
118045,102316
118132,102359
118113,102338
118129,102377
118123,102302
118172,102391
118236,102393
118213,102400
118231,102355
118206,102373
118305,102411
118365,102429
118336,102437
118371,102444
118353,102408
118412,102455
118447,102498
118475,102462
118464,102476
118410,102438
118484,102491
118525,102518
118541,102498
118534,102513
118503,102463
118573,102558
118577,102575
118654,102565
118658,102541
118596,102513
118691,102562
118722,102593
118728,102608
118724,102595
118710,102543
118812,102612
118843,102648
118854,102660
118870,102628
118824,102612
118927,102670
118945,102705
118968,102695
118967,102669
118945,102669
119051,102732
119093,102757
119078,102737
119025,102694
119028,102676
119032,102721
118953,102664
118801,102584
118609,102500
118296,102355
118121,102306
117803,102160
117447,102000
117075,101841
116778,101726
116565,101668
116373,101614
116175,101522
115997,101423
115843,101351
115753,101341
115689,101335
115598,101274
115499,101219
115419,101180
115453,101225
115416,101227
115359,101174
115341,101147
115327,101110
115370,101198
115422,101209
115410,101228
115451,101192
115425,101199
115552,101270
115598,101315
115645,101312
115655,101303
115707,101336
115830,101395
115854,101427
115944,101457
115925,101399
115964,101438
116112,101534
116149,101530
116180,101544
116218,101539
116251,101550
116367,101611
116385,101632
116440,101631
116440,101609
116441,101629
116561,101687
116547,101686
116622,101731
116647,101731
116684,101721
116746,101753
116825,101804
116847,101808
116870,101780
116960,101835
117074,101886
117159,101944
117230,101951
117261,101956
117337,101996
117483,102062
117544,102094
117604,102112
117596,102066
117656,102105
117739,102157
117768,102168
117735,102179
117731,102116
117766,102167
117779,102176
117814,102166
117755,102167
117727,102094
117720,102117
117769,102139
117748,102124
117703,102144
117662,102082
117668,102085
117671,102161
117693,102116
117630,102092
117568,102059
117595,102076
117685,102110
117643,102099
117634,102057
117592,102026
117632,102087
117683,102133
117698,102126
117676,102127
117653,102085
117717,102145
117767,102151
117798,102182
117802,102183
117800,102153
117842,102201
117926,102222
117920,102219
118000,102247
117980,102185
118029,102264
118090,102310
118112,102321
118113,102287
118124,102274
118189,102322
118265,102350
118283,102395
118320,102377
118281,102335
118392,102414
118438,102454
118452,102452
118492,102457
118477,102414
118545,102496
118592,102523
118590,102506
118606,102499
118638,102475
118680,102557
118738,102569
118748,102589
118760,102546
118759,102551
118835,102599
118894,102615
118867,102623
118890,102623
118886,102565
118919,102638
118962,102669
119009,102708
118992,102652
118977,102662
119044,102705
119037,102727
119108,102710
119040,102694
119051,102666
119101,102693
119181,102767
119121,102729
119106,102732
119106,102698
119184,102757
119222,102804
119220,102765
119198,102763
119142,102744
119241,102794
119254,102786
119258,102796
119260,102766
119248,102739
119289,102813
119318,102824
119338,102808
119323,102777
119298,102772
119368,102832
119405,102850
119453,102857
119374,102820
119406,102838
119488,102897
119499,102939
119509,102900
119494,102901
119479,102883
119522,102912
119562,102956
119536,102921
119468,102907
119475,102856
119483,102887
119421,102868
119314,102822
119105,102695
118851,102593
118557,102467
118267,102355
117892,102214
117494,102011
117158,101885
116892,101808
116655,101743
116392,101624
116191,101499
116023,101453
115956,101432
115802,101417
115731,101350
115584,101277
115502,101256
115508,101279
115436,101281
115365,101201
115286,101145
115288,101164
115298,101197
115303,101195
115322,101198
115272,101161
115303,101190
115399,101234
115422,101224
115423,101226
115435,101242
115475,101243
115563,101313
115624,101333
115627,101357
115659,101334
115717,101362
115819,101419
115842,101421
115895,101423
115863,101405
115965,101450
116029,101530
115997,101501
116059,101514
116050,101459
116090,101513
116161,101538
116194,101577
116190,101567
116233,101544
116257,101586
116360,101636
116411,101645
116453,101648
116468,101632
116547,101692
116631,101770
116673,101773
116754,101780
116777,101781
116848,101825
116928,101906
116963,101877
117012,101895
117001,101866
117043,101887
117101,101938
117100,101909
117070,101913
117024,101879
117050,101922
117102,101916
117032,101914
117013,101896
116963,101834
116976,101865
117025,101918
117010,101895
116936,101850
116876,101797
116938,101870
116939,101894
116944,101889
116914,101825
116849,101758
116861,101826
116953,101880
116956,101853
116895,101832
116894,101808
116961,101880
116959,101892
116983,101878
117005,101880
116999,101805
117053,101894
117103,101927
117124,101920
117149,101907
117112,101920
117180,101973
117273,102001
117288,101979
117278,101963
117303,101973
117377,102062
117465,102073
117475,102097
117457,102042
117494,102035
117531,102111
117581,102161
117663,102152
117673,102131
117652,102118
117778,102178
117833,102213
117811,102234
117896,102225
117891,102237
117953,102264
118022,102294
118045,102294
118070,102308
118089,102310
118174,102349
118202,102380
118210,102375
118260,102380
118259,102337
118346,102393
118365,102405
118363,102460
118385,102434
118400,102426
118485,102466
118485,102522
118500,102493
118535,102505
118545,102451
118603,102541
118647,102533
118655,102540
118614,102526
118642,102510
118687,102590
118785,102599
118772,102601
118728,102568
118748,102570
118832,102629
118873,102611
118861,102659
118873,102607
118862,102580
118924,102683
118981,102685
118949,102664
118982,102661
118975,102678
119070,102681
119067,102730
119087,102724
119081,102709
119103,102720
119185,102744
119214,102785
119234,102778
119202,102738
119208,102759
119296,102810
119309,102795
119296,102812
119244,102764
119240,102759
119228,102784
119107,102725
118944,102634
118640,102504
118355,102334
118129,102293
117737,102132
117389,101977
117032,101797
116728,101688
116534,101658
116295,101582
116134,101520
115966,101418
115842,101361
115770,101330
115620,101292
115535,101251
115398,101186
115390,101198
115366,101164
115290,101169
115268,101141
115199,101082
115205,101113
115229,101147
115244,101140
115280,101112
115252,101090
115283,101117
115340,101194
115380,101217
115408,101206
115363,101170
115457,101214
115549,101268
115552,101289
115618,101334
115652,101310
115692,101321
115759,101344
115806,101384
115828,101416
115837,101372
115918,101378
115933,101427
115995,101437
115991,101446
115989,101426
116045,101479
116089,101510
116109,101512
116154,101520
116141,101479
116207,101543
116287,101587
116308,101569
116310,101592
116332,101566
116449,101637
116557,101687
116604,101696
116631,101721
116684,101683
116774,101763
116868,101837
116898,101832
116926,101827
116927,101787
116983,101869
117053,101888
117046,101880
117021,101868
117004,101840
117063,101891
117082,101913
117056,101882
117054,101854
116993,101845
117020,101866
117001,101899
116987,101873
116966,101848
116898,101788
116974,101843
116942,101843
116893,101872
116890,101826
116880,101799
116901,101836
116928,101827
116908,101792
116872,101770
116858,101775
116859,101836
116934,101844
116900,101838
116944,101820
116919,101812
116977,101867
117004,101876
117024,101896
117048,101850
117044,101873
117101,101953
117184,101946
117177,101965
117193,101932
117183,101894
117277,101979
117325,101975
117360,102013
117330,101999
117362,102006
117448,102064
117473,102081
117520,102067
117496,102040
117515,102025
117588,102124
117646,102132
117650,102130
117656,102108
117687,102109
117730,102153
117793,102195
117821,102177
117836,102137
117830,102180
117897,102239
117961,102252
117979,102259
118018,102237
118036,102235
118126,102304
118157,102316
118206,102367
118218,102328
118259,102333
118336,102427
118411,102416
118424,102435
118402,102429
118452,102445
118545,102483
118550,102482
118607,102534
118604,102492
118624,102494
118731,102534
118722,102567
118763,102559
118748,102544
118723,102541
118803,102607
118884,102642
118904,102635
118856,102590
118861,102608
118956,102651
118985,102647
118998,102645
118984,102651
118977,102629
119080,102708
119077,102685
119084,102693
119072,102675
119073,102688
119114,102718
119151,102742
119156,102720
119135,102724
119187,102719
119224,102781
119264,102780
119269,102750
119225,102728
119305,102758
119332,102814
119382,102829
119379,102813
119365,102825
119370,102808
119424,102869
119432,102886
119420,102844
119340,102767
119264,102760
119123,102707
118920,102588
118626,102506
118297,102321
117910,102179
117626,102081
117271,101924
116910,101785
116597,101646
116359,101599
116229,101538
116050,101460
115888,101405
115671,101283
115594,101268
115555,101275
115464,101240
115360,101176
115258,101102
115166,101139
115175,101133
115180,101118
115095,101086
115091,101030
115103,101092
115137,101113
115119,101110
115121,101076
115087,101054
115155,101117
115202,101140
115250,101133
115273,101157
115262,101127
115313,101169
115401,101205
115429,101217
115482,101214
115444,101197
115531,101260
115593,101331
115611,101302
115622,101313
115628,101271
115682,101318
115717,101352
115721,101356
115711,101344
115741,101308
115789,101387
115830,101385
115837,101417
115848,101416
115869,101373
115935,101434
116011,101475
116038,101477
116054,101489
116093,101477
116189,101560
116267,101590
116303,101601
116349,101623
116386,101581
116460,101684
116534,101722
116605,101720
116656,101706
116624,101675
116688,101742
116742,101757
116766,101801
116744,101746
116741,101764
116817,101789
116841,101815
116806,101789
116771,101797
116766,101721
116795,101771
116817,101800
116759,101758
116749,101742
116709,101736
116747,101763
116764,101759
116733,101765
116722,101744
116701,101689
116749,101726
116747,101772
116732,101757
116733,101751
116733,101700
116802,101760
116797,101760
116834,101793
116834,101772
116820,101776
116870,101821
116910,101800
116954,101864
116959,101807
116986,101808
117050,101880
117122,101948
117164,101945
117132,101942
117161,101917
117246,101951
117264,102000
117333,102002
117354,101983
117297,101972
117404,102052
117447,102051
117516,102048
117474,102069
117549,102067
117625,102124
117674,102134
117659,102127
117676,102107
117708,102163
117807,102224
117822,102190
117877,102224
117843,102177
117894,102172
117954,102227
118016,102279
118065,102281
118032,102242
118053,102278
118172,102325
118162,102335
118189,102338
118195,102317
118211,102330
118294,102389
118314,102413
118333,102432
118334,102388
118389,102403
118497,102452
118499,102463
118498,102446
118519,102452
118535,102466
118586,102520
118604,102532
118628,102533
118620,102495
118681,102535
118723,102568
118754,102601
118766,102535
118749,102528
118767,102560
118823,102597
118843,102623
118812,102607
118833,102571
118862,102590
118935,102647
118905,102648
118936,102657
118906,102605
118922,102588
118984,102650
118958,102691
118993,102689
118953,102610
118975,102638
119046,102672
119034,102706
119041,102681
119011,102640
119031,102669
119098,102702
119097,102729
119135,102713
119090,102695
119127,102718
119185,102777
119194,102755
119222,102769
119217,102719
119256,102767
119310,102830
119371,102823
119345,102841
119335,102748
119386,102860
119469,102901
119475,102861
119470,102847
119442,102861
119467,102818
119447,102841
119306,102806
119130,102688
118850,102549
118551,102435
118256,102346
117873,102165
117504,102011
117130,101813
116852,101776
116634,101702
116426,101598
116213,101507
116019,101426
115946,101410
115846,101364
115747,101331
115606,101248
115523,101211
115498,101244
115469,101227
115444,101170
115356,101151
115324,101124
115324,101174
115375,101178
115344,101167
115363,101199
115346,101155
115452,101201
115454,101229
115485,101230
115522,101234
115499,101210
115615,101288
115671,101312
115664,101315
115750,101314
115691,101304
115807,101400
115882,101398
115895,101412
115925,101401
115955,101394
116012,101446
116095,101504
116108,101499
116111,101497
116087,101485
116212,101524
116230,101565
116255,101552
116269,101520
116266,101548
116354,101602
116402,101618
116424,101627
116484,101615
116526,101637
116629,101720
116705,101738
116767,101752
116822,101773
116838,101788
117003,101865
117077,101890
117086,101892
117145,101912
117156,101886
117298,101933
117313,101988
117311,101988
117286,101972
117283,101926
117346,101995
117359,102007
117355,101998
117300,101958
117298,101953
117318,101991
117352,101989
117334,101973
117280,101948
117234,101923
117312,101956
117249,101971
117291,101952
117204,101923
117208,101908
117275,101954
117264,101954
117277,101920
117227,101920
117216,101925
117288,101987
117301,101985
117351,101997
117324,101953
117311,101955
117393,101999
117418,102028
117452,102033
117421,102024
117467,102022
117534,102080
117589,102093
117576,102115
117598,102042
117614,102075
117713,102131
117754,102147
117777,102176
117789,102140
117803,102181
117864,102210
117912,102220
117962,102256
117937,102250
118012,102263
118069,102291
118086,102322
118143,102333
118145,102283
118163,102304
118283,102351
118266,102378
118282,102358
118271,102330
118338,102388
118423,102432
118420,102448
118424,102454
118390,102415
118488,102447
118578,102492
118566,102481
118614,102496
118590,102469
118643,102494
118704,102544
118723,102553
118732,102542
118699,102530
118745,102589
118795,102612
118811,102612
118865,102593
118823,102586
118891,102591
118956,102666
118965,102658
118955,102635
118927,102622
119011,102655
119031,102720
119035,102716
119061,102693
119020,102661
119067,102690
119121,102737
119111,102691
119105,102715
119067,102676
119101,102709
119190,102768
119169,102772
119153,102733
119134,102712
119180,102730
119234,102780
119219,102746
119209,102761
119168,102722
119215,102770
119282,102781
119271,102760
119295,102771
119251,102712
119275,102799
119345,102838
119370,102819
119303,102807
119284,102761
119385,102830
119426,102873
119444,102865
119411,102854
119425,102824
119526,102863
119550,102912
119563,102900
119531,102914
119529,102879
119590,102955
119650,102990
119681,102961
119643,102942
119691,102931
119699,102934
119719,102981
119653,102951
119558,102875
119348,102762
119200,102729
118939,102575
118608,102480
118257,102329
117867,102129
117581,102059
117270,101937
116991,101827
116715,101712
116515,101614
116387,101607
116297,101586
116142,101478
116019,101410
115893,101364
115893,101403
115841,101418
115788,101375
115686,101320
115658,101296
115645,101324
115690,101310
115677,101318
115666,101323
115626,101273
115688,101341
115738,101382
115755,101358
115760,101347
115744,101357
115850,101420
115878,101425
115912,101437
115924,101421
115973,101440
116056,101494
116104,101504
116146,101518
116122,101517
116161,101524
116249,101569
116329,101622
116309,101611
116319,101553
116354,101614
116424,101652
116410,101687
116471,101656
116450,101658
116498,101665
116596,101696
116631,101717
116636,101760
116682,101703
116691,101752
116826,101808
116894,101826
116926,101866
116993,101854
117010,101887
117148,101939
117213,101959
117261,101987
117298,101968
117298,101964
117401,102042
117422,102042
117411,102050
117427,102021
117415,102049
117486,102048
117461,102080
117458,102033
117386,102012
117357,102013
117419,102063
117362,102013
117338,101999
117289,101967
117257,101975
117341,102025
117327,101995
117281,101964
117208,101929
117222,101975
117268,101977
117211,101999
117226,101982
117189,101893
117203,101959
117246,101986
117237,101954
117272,101975
117249,101908
117257,101929
117322,102015
117346,102005
117372,102046
117331,102002
117392,101982
117475,102094
117465,102106
117518,102082
117516,102060
117557,102094
117667,102160
117704,102155
117720,102163
117708,102113
117754,102180
117841,102220
117891,102251
117926,102230
117896,102227
117979,102255
118039,102290
118098,102293
118105,102306
118060,102280
118158,102351
118259,102373
118274,102374
118308,102417
118284,102352
118369,102390
118442,102466
118476,102451
118494,102464
118499,102418
118587,102516
118666,102509
118645,102558
118687,102535
118699,102512
118776,102582
118848,102602
118838,102598
118882,102613
118873,102600
118926,102669
118997,102663
119031,102667
119030,102692
119028,102620
119099,102715
119172,102753
119184,102762
119188,102743
119214,102714
119254,102779
119315,102789
119331,102832
119331,102794
119281,102772
119368,102820
119432,102862
119449,102854
119439,102839
119417,102805
119465,102881
119550,102889
119517,102865
119538,102859
119533,102857
119574,102870
119630,102927
119608,102923
119609,102896
119591,102890
119685,102935
119678,102948
119734,102959
119719,102942
119685,102934
119743,102980
119791,103008
119781,102975
119784,102911
119776,102932
119853,103034
119901,103013
119887,103028
119876,103019
119888,103004
119947,103067
119986,103069
120015,103091
120007,103069
120013,103053
120054,103124
120089,103124
120146,103137
120133,103123
120145,103127
120207,103138
120212,103161
120189,103140
120121,103104
120047,103077
119979,103053
119808,102979
119562,102876
119211,102668
118829,102544
118537,102449
118160,102282
117811,102147
117398,101969
117134,101868
116975,101829
116775,101754
116620,101694
116450,101601
116338,101554
116293,101554
116168,101549
116081,101510
116048,101468
115986,101432
116009,101477
115969,101439
115939,101411
115909,101389
115908,101415
115959,101434
115948,101471
115966,101457
115956,101423
116002,101429
116077,101506
116151,101497
116146,101511
116155,101481
116183,101528
116329,101568
116319,101596
116389,101592
116410,101579
116452,101639
116533,101675
116573,101707
116609,101706
116608,101687
116633,101711
116732,101772
116762,101791
116793,101789
116785,101760
116828,101806
116869,101834
116928,101882
117009,101836
116960,101846
117054,101890
117128,101947
117237,101969
117251,101985
117315,101979
117416,102009
117510,102078
117581,102104
117659,102137
117667,102103
117713,102154
117837,102220
117889,102243
117899,102244
117889,102201
117924,102208
118012,102264
117957,102266
117969,102247
117914,102204
117956,102220
117991,102243
117946,102235
117925,102225
117872,102183
117882,102202
117902,102208
117898,102219
117891,102204
117796,102147
117847,102179
117851,102221
117839,102202
117832,102189
117750,102119
117815,102172
117837,102202
117844,102218
117834,102160
117812,102158
117866,102209
117904,102215
117925,102223
117926,102250
117929,102203
117958,102243
118049,102293
118055,102297
118061,102282
118072,102261
118153,102284
118204,102330
118233,102350
118230,102342
118229,102327
118298,102378
118373,102390
118402,102417
118427,102415
118414,102407
118536,102457
118618,102471
118598,102464
118650,102492
118627,102467
118707,102545
118760,102573
118803,102598
118820,102573
118817,102558
118904,102641
118967,102649
118987,102655
118998,102617
118987,102615
119089,102683
119127,102714
119151,102728
119194,102710
119154,102683
119260,102768
119284,102767
119338,102781
119323,102779
119356,102767
119375,102847
119460,102865
119479,102852
119494,102823
119489,102835
119525,102890
119590,102918
119602,102904
119589,102885
119581,102876
119681,102952
119708,102948
119733,102940
119733,102928
119695,102939
119777,102976
119832,102990
119808,102998
119798,102988
119832,102985
119888,103043
119923,103029
119915,103036
119871,102998
119899,103034
119975,103087
119972,103076
119961,103059
119937,103020
119972,103040
120026,103085
120051,103094
120030,103068
120020,103060
119998,103048
120078,103102
120073,103111
120070,103122
120086,103075
120071,103065
120129,103139
120143,103118
120171,103135
120148,103111
120157,103104
120211,103160
120223,103162
120237,103176
120253,103140
120268,103155
120321,103214
120331,103220
120362,103202
120334,103172
120381,103206
120461,103250
120429,103228
120464,103239
120405,103221
120406,103214
120417,103273
120357,103238
120257,103169
120073,103048
119816,102957
119564,102848
119181,102672
118795,102528
118424,102366
118049,102222
117780,102128
117423,101999
117187,101899
116910,101789
116803,101759
116683,101738
116541,101641
116437,101605
116302,101539
116221,101538
116261,101525
116185,101519
116139,101518
116089,101419
116093,101446
116130,101508
116087,101491
116091,101466
116034,101443
116124,101503
116145,101551
116194,101559
116203,101506
116203,101502
116274,101550
116321,101571
116369,101623
116409,101598
116385,101595
116485,101651
116522,101668
116559,101669
116592,101721
116566,101682
116633,101731
116650,101770
116729,101766
116773,101761
116710,101709
116806,101763
116827,101780
116873,101801
116843,101814
116847,101762
116917,101846
116989,101873
117029,101859
117053,101863
117043,101848
117176,101916
117176,101949
117286,101994
117366,101986
117348,101960
117471,102053
117568,102107
117575,102105
117655,102112
117644,102076
117719,102166
117769,102194
117769,102129
117712,102153
117702,102094
117749,102180
117778,102199
117770,102189
117717,102161
117687,102100
117736,102137
117737,102159
117749,102149
117698,102122
117639,102078
117695,102132
117716,102142
117672,102121
117665,102080
117603,102058
117656,102097
117680,102113
117662,102113
117620,102086
117638,102087
117657,102103
117694,102131
117729,102107
117714,102130
117739,102110
117822,102149
117839,102174
117858,102188
117848,102171
117887,102156
117944,102210
117988,102244
118024,102239
118001,102232
118054,102255
118146,102268
118215,102339
118189,102326
118216,102302
118239,102315
118359,102370
118404,102393
118410,102371
118429,102368
118446,102384
118576,102483
118620,102470
118640,102479
118654,102459
118664,102499
118807,102548
118842,102556
118875,102579
118849,102550
118898,102566
118980,102613
119033,102636
119015,102649
119021,102610
119058,102634
119130,102693
119201,102737
119215,102698
119218,102699
119213,102678
119314,102780
119363,102801
119378,102749
119376,102726
119399,102751
119452,102809
119496,102814
119530,102817
119516,102767
119527,102815
119595,102878
119647,102890
119652,102889
119667,102857
119702,102882
119726,102921
119803,102923
119794,102927
119813,102898
119822,102946
119899,103018
119947,102964
119939,102993
119941,102954
119971,103000
120022,103009
120055,103024
120047,103040
120063,103013
120052,103023
120139,103094
120144,103098
120158,103078
120114,103047
120167,103098
120203,103097
120236,103102
120232,103114
120239,103107
120265,103135
120349,103158
120331,103187
120344,103170
120302,103130
120355,103158
120438,103193
120449,103220
120476,103206
120458,103186
120488,103208
120537,103252
120541,103276
120536,103250
120569,103205
120648,103267
120669,103297
120702,103295
120686,103274
120693,103253
120747,103338
120816,103370
120853,103359
120812,103361
120809,103358
120882,103377
120941,103422
120941,103434
120955,103396
120920,103380
120948,103413
120925,103420
120865,103372
120718,103288
120500,103179
120280,103097
120005,103003
119582,102812
119142,102591
118708,102385
118360,102311
118146,102203
117788,102089
117520,101987
117247,101836
117134,101823
116962,101790
116887,101743
116770,101695
116642,101610
116613,101590
116616,101637
116579,101625
116536,101597
116480,101560
116545,101615
116572,101634
116580,101609
116565,101602
116585,101614
116672,101655
116703,101678
116734,101726
116803,101729
116859,101716
116956,101769
117041,101826
117091,101824
117104,101833
117137,101838
117235,101910
117342,101953
117381,101956
117397,101922
117419,101925
117543,102034
117626,102071
117671,102080
117679,102071
117704,102046
117810,102113
117868,102123
117894,102143
117909,102152
117943,102124
118059,102211
118140,102260
118162,102261
118156,102258
118210,102245
118352,102357
118407,102346
118497,102366
118539,102378
118580,102436
118695,102463
118785,102511
118806,102527
118861,102507
118871,102509
118982,102608
119004,102584
119012,102597
119009,102599
118996,102590
119051,102616
119039,102620
119047,102630
119012,102572
118943,102574
119028,102614
118996,102579
118985,102571
118962,102490
118914,102510
118919,102576
118916,102549
118897,102529
118873,102501
118820,102523
118862,102546
118855,102527
118804,102534
118775,102498
118802,102458
118810,102540
118806,102538
118792,102541
118787,102461
118795,102481
118862,102542
118840,102532
118837,102566
118843,102488
118827,102520
118936,102569
118910,102597
118907,102559
118915,102534
118910,102558
118987,102611
119018,102608
119063,102645
119038,102590
119040,102620
119117,102695
119149,102681
119163,102655
119143,102642
119156,102643
119256,102724
119263,102697
119250,102692
119249,102694
119281,102696
119362,102753
119383,102750
119374,102750
119344,102734
119385,102753
119454,102794
119479,102775
119477,102792
119453,102739
119504,102817
119587,102824
119592,102830
119567,102835
119556,102793
119605,102846
119653,102900
119675,102862
119687,102887
119693,102849
119709,102878
119787,102951
119752,102957
119781,102915
119766,102878
119829,102928
119903,102969
119908,102983
119916,102967
119902,102910
119924,102951
120002,103019
120001,103009
120017,102975
119992,102947
120026,102997
120064,103047
120095,103038
120094,103038
120066,102979
120124,103047
120149,103062
120142,103054
120147,103059
120125,103003
120198,103109
120244,103112
120202,103091
120234,103079
120182,103052
120269,103120
120316,103146
120357,103149
120320,103134
120318,103098
120420,103147
120433,103166
120465,103198
120475,103181
120451,103114
120514,103207
120564,103243
120598,103227
120587,103188
120554,103173
120583,103227
120635,103267
120624,103264
120570,103219
120480,103191
120494,103177
120436,103186
120264,103055
119991,102936
119665,102780
119353,102665
119003,102560
118648,102414
118310,102262
117937,102110
117741,102069
117450,101976
117230,101875
117057,101788
116872,101741
116810,101706
116725,101668
116656,101641
116589,101582
116486,101524
116503,101570
116491,101578
116487,101584
116456,101540
116434,101523
116467,101593
116538,101617
116592,101602
116583,101589
116630,101617
116689,101684
116744,101694
116839,101700
116819,101699
116871,101711
116972,101806
117064,101830
117139,101848
117144,101827
117194,101835
117315,101913
117350,101944
117459,101970
117391,101956
117471,101983
117589,102007
117601,102031
117641,102065
117671,102011
117663,102035
117789,102116
117833,102138
117874,102147
117874,102117
117936,102127
118059,102226
118125,102245
118194,102272
118187,102245
118275,102270
118361,102347
118472,102366
118499,102401
118541,102397
118617,102419
118637,102504
118730,102500
118761,102488
118741,102463
118736,102467
118810,102520
118815,102525
118810,102516
118754,102486
118744,102499
118770,102505
118752,102520
118701,102503
118691,102465
118688,102464
118711,102494
118695,102477
118669,102459
118633,102398
118572,102412
118639,102448
118625,102433
118604,102429
118578,102400
118588,102383
118599,102455
118637,102458
118612,102457
118601,102409
118617,102448
118687,102484
118718,102510
118714,102473
118670,102453
118773,102504
118783,102504
118866,102529
118868,102532
118864,102517
118910,102542
118950,102586
119015,102612
119048,102608
119067,102594
119130,102660
119219,102686
119214,102710
119281,102704
119305,102661
119377,102720
119418,102777
119468,102801
119484,102790
119539,102795
119582,102865
119686,102894
119708,102885
119735,102891
119756,102894
119805,102946
119887,103004
119972,103000
119965,102969
119941,102956
120042,103002
120095,103031
120114,103070
120169,103075
120159,103041
120257,103083
120334,103142
120349,103135
120342,103143
120360,103129
120440,103155
120495,103210
120529,103208
120522,103222
120523,103177
120582,103243
120650,103295
120681,103284
120654,103260
120662,103239
120724,103298
120793,103315
120781,103332
120804,103299
120777,103276
120826,103362
120871,103367
120916,103371
120880,103331
120899,103323
120963,103408
121017,103425
121015,103409
120982,103410
120979,103383
121068,103433
121101,103463
121096,103455
121088,103454
121083,103441
121133,103456
121177,103531
121170,103520
121146,103499
121179,103491
121270,103517
121294,103566
121248,103548
121243,103508
121257,103500
121292,103567
121353,103574
121360,103581
121334,103524
121329,103557
121381,103603
121403,103622
121382,103617
121354,103571
121359,103561
121367,103623
121366,103571
121236,103517
121121,103444
120915,103346
120721,103286
120467,103141
120094,102981
119640,102759
119228,102582
118908,102545
118629,102424
118348,102264
118045,102148
117821,102076
117720,102083
117564,102001
117480,101960
117335,101861
117273,101864
117245,101870
117248,101880
117207,101874
117182,101816
117158,101820
117265,101893
117304,101902
117307,101892
117321,101875
117345,101919
117477,101949
117540,102005
117593,102009
117631,101975
117669,102046
117815,102112
117867,102122
117939,102128
118007,102134
118019,102194
118155,102260
118245,102301
118290,102287
118320,102268
118338,102291
118487,102362
118483,102384
118547,102404
118516,102386
118608,102412
118654,102462
118730,102446
118759,102500
118795,102459
118839,102514
118922,102570
118989,102580
119038,102596
119054,102593
119102,102642
119175,102672
119282,102715
119337,102719
119372,102712
119398,102760
119480,102795
119547,102798
119563,102817
119530,102774
119572,102786
119613,102822
119593,102832
119587,102824
119505,102755
119531,102786
119577,102805
119512,102763
119503,102805
119397,102691
119378,102709
119419,102762
119340,102765
119315,102719
119228,102648
119250,102669
119238,102676
119187,102680
119179,102656
119112,102618
119126,102610
119101,102627
119123,102626
119115,102586
119019,102566
119085,102586
119126,102611
119117,102607
119095,102623
119091,102575
119107,102591
119159,102612
119161,102644
119190,102639
119131,102611
119169,102668
119269,102699
119268,102693
119237,102683
119246,102638
119323,102664
119365,102699
119355,102724
119402,102735
119379,102681
119464,102742
119519,102785
119520,102771
119552,102761
119506,102762
119614,102793
119665,102830
119660,102825
119671,102825
119680,102803
119757,102847
119825,102855
119796,102904
119842,102884
119791,102861
119898,102903
119951,102955
119951,102949
119992,102954
119963,102894
120004,102939
120040,103003
120083,102999
120081,103005
120061,102954
120116,103004
